Time,Cum. Inj Water,Cum. Prod Water ,Cum Oil prod,Cum. Inj CO2,Cum. Prod Gas,Pressure
hrs,rml,Sml,Sml,rml,SCC,atm
0,0,0,0,0,0,255.1866502
0.004003896,0.050313555,0.014359297,0.27793049,0,23.12613764,255.3503498
0.01233723,0.155031455,0.014359297,0.27793049,0,12.38731914,255.1047998
0.020670563,0.260796534,0.014359297,0.27793049,0,-15.21593797,255.2275753
0.029003896,0.365514434,0.014359297,0.44746911,0,32.70320883,255.3503498
0.03733723,0.470232334,0.014359297,0.44746911,0,13.9254477,255.1457251
0.045670563,0.574950234,-0.025488823,0.57707297,0,-3.060179038,255.309425
0.054003896,0.679668134,-0.025488823,0.57707297,0,16.32979131,255.1866502
0.06233723,0.784386034,-0.065336943,0.65681253,0,93.46574642,255.2685002
0.070670563,0.889103934,-0.065336943,0.65681253,0,49.33546121,255.3503498
0.079003896,0.993821834,-0.055374913,1.30505926,0,16.3314919,255.2685002
0.08733723,1.098539734,-0.055374913,1.30505926,0,104.6736722,255.3503498
0.095670563,1.203257634,-0.154995213,0.88609084,0,91.9629554,255.2275753
0.104003897,1.309022713,-0.154995213,0.88609084,0,131.2306126,255.3503498
0.11233723,1.413740613,-0.214767393,1.94314902,0,58.38066674,255.1457251
0.120670563,1.518458513,-0.214767393,1.94314902,0,109.3380146,255.2685002
0.129003896,1.623176413,-0.244653483,1.54420213,0,123.876946,255.0638745
0.13733723,1.727894313,-0.244653483,1.54420213,0,135.502886,255.2685002
0.145670563,1.832612213,-0.174919273,1.82351802,0,135.1607338,255.309425
0.154003897,1.934188576,-0.174919273,1.82351802,0,139.2084002,255.1457251
0.16233723,2.038906476,-0.174919273,1.82351802,0,160.7123237,255.309425
0.170670563,2.143624376,-0.174919273,1.82351802,0,154.0319908,255.2275753
0.179003896,2.249389455,-0.135071153,2.49174296,0,191.4428812,255.309425
0.18733723,2.354107355,-0.135071153,2.49174296,0,217.7239673,255.3503498
0.195670563,2.458825255,-0.125109123,2.53164523,0,199.9813597,255.2275753
0.204003897,2.563543155,-0.125109123,2.53164523,0,166.9254965,255.2685002
0.21233723,2.668261055,-0.214767393,1.89328472,0,185.5621942,255.3503498
0.220670563,2.772978955,-0.214767393,1.89328472,0,233.0364637,255.4321989
0.229003896,2.878744034,-0.194843333,1.94317068,0,182.6583287,255.2275753
0.23733723,2.983461934,-0.194843333,1.94317068,0,234.0808145,255.309425
0.245670563,3.088179834,-0.194843333,2.88061952,0,231.0158121,255.2275753
0.254003896,3.192897734,-0.194843333,2.88061952,0,233.8484509,255.2685002
0.26233723,3.297615634,-0.194843333,2.88061952,0,203.0777431,255.1457251
0.270670563,3.402333534,-0.045412883,2.54170473,0,231.7221875,255.3912744
0.279003896,3.507051434,-0.045412883,2.54170473,0,249.5522266,255.3503498
0.28733723,3.612816513,-0.125109123,2.98042393,0,305.4871387,255.2685002
0.295670563,3.717534413,-0.125109123,2.98042393,0,295.1593412,255.309425
0.304003896,3.822252313,-0.105185063,3.64862721,0,248.9681615,255.1457251
0.31233723,3.926970213,-0.105185063,3.64862721,0,242.3155556,255.1457251
0.320670563,4.031688113,-0.224729423,3.36925717,0,230.0340368,255.3503498
0.329003896,4.136406013,-0.224729423,3.36925717,0,270.1209054,255.1866502
0.33733723,4.241123913,-0.164957243,3.90785659,0,295.5709863,255.2685002
0.345670563,4.345841813,-0.164957243,3.90785659,0,312.384947,255.1866502
0.354003896,4.451606892,-0.244653483,3.39915409,0,307.5020898,255.309425
0.36233723,4.556324792,-0.244653483,3.39915409,0,336.9905338,255.2685002
0.370670563,4.661042692,-0.324349723,4.45619061,0,331.9291371,255.2685002
0.379003896,4.765760592,-0.324349723,4.45619061,0,337.1472578,255.2685002
0.38733723,4.870478492,-0.304425663,4.29664651,0,304.2362221,255.2275753
0.395670563,4.975196392,-0.304425663,4.29664651,0,286.6083605,255.3503498
0.404003896,5.079914292,-0.374159873,4.2965707,0,305.424352,255.2275753
0.41233723,5.184632192,-0.374159873,4.2965707,0,396.2071554,255.2275753
0.420670563,5.289350092,-0.423970023,4.37629943,0,394.288543,255.1457251
0.429003896,5.394067992,-0.423970023,4.37629943,0,434.4786748,255.2685002
0.43733723,5.499833071,-0.423970023,4.37629943,0,430.5452498,255.2685002
0.445670563,5.604550971,-0.384121903,5.30381873,0,430.9213524,255.2275753
0.454003896,5.709268871,-0.384121903,5.30381873,0,408.5860951,255.309425
0.46233723,5.813986771,-0.314387693,5.00470874,0,405.449524,255.1866502
0.470670563,5.915563134,-0.314387693,5.00470874,0,419.5413634,255.2685002
0.479003897,6.020281034,-0.274539573,4.86513202,0,429.6262039,255.0638745
0.48733723,6.124998934,-0.274539573,4.86513202,0,393.3836,255.2685002
0.495670563,6.229716834,-0.274539573,4.795322,0,396.5498708,255.1866502
0.504003896,6.334434734,-0.274539573,4.795322,0,443.0233137,255.309425
0.51233723,6.439152634,-0.214767393,5.5632972,0,418.4358583,255.3503498
0.520670563,6.544917713,-0.214767393,5.5632972,0,467.3218095,255.309425
0.529003897,6.649635613,-0.324349723,5.42355803,0,472.6660894,255.1866502
0.53733723,6.754353513,-0.324349723,5.42355803,0,468.8397094,255.1866502
0.545670563,6.859071413,-0.294463633,6.13166358,0,452.1697307,255.3503498
0.554003896,6.963789313,-0.294463633,6.13166358,0,520.7073234,255.1866502
0.56233723,7.069554392,-0.314387693,6.13164192,0,506.3438729,255.2275753
0.570670563,7.174272292,-0.314387693,6.13164192,0,455.2757891,255.309425
0.579003897,7.278990192,-0.314387693,6.13164192,0,509.6236661,255.1457251
0.58733723,7.383708092,-0.463818143,6.10156089,0,510.1852079,255.2685002
0.595670563,7.488425992,-0.463818143,6.10156089,0,539.4946578,255.4321989
0.604003896,7.593143892,-0.623210623,6.76956923,0,524.7832538,255.3503498
0.61233723,7.697861792,-0.623210623,6.76956923,0,515.3893239,255.2275753
0.620670563,7.802579692,-0.593324533,6.86933032,0,598.6785684,255.309425
0.629003896,7.907297592,-0.593324533,6.86933032,0,581.620352,255.2685002
0.63733723,8.013062671,-0.503666263,7.30823363,0,580.7416892,255.3503498
0.645670563,8.117780571,-0.503666263,7.30823363,0,596.6413626,255.1866502
0.654003896,8.222498471,-0.364197843,7.25852095,0,574.2435646,255.3912744
0.66233723,8.327216371,-0.364197843,7.25852095,0,556.7830918,255.4321989
0.670670563,8.431934271,-0.354235813,7.00921028,0,635.912259,255.2275753
0.679003896,8.536652171,-0.354235813,7.00921028,0,629.1279515,255.3503498
0.68733723,8.641370071,-0.394083933,7.1986513,0,586.9054504,255.1457251
0.695670563,8.746087971,-0.394083933,7.1986513,0,598.6332,255.3912744
0.704003896,8.850805871,-0.394083933,7.1986513,0,637.8212241,255.2685002
0.71233723,8.95657095,-0.344273783,7.49789125,0,653.9279986,255.2685002
0.720670563,9.06128885,-0.344273783,7.49789125,0,618.6640871,255.1457251
0.729003896,9.16600675,-0.304425663,8.52513915,0,593.1250505,255.309425
0.73733723,9.269677471,-0.304425663,8.52513915,0,633.5577947,255.3912744
0.745670563,9.374395371,-0.334311753,7.83697932,0,639.991593,255.2275753
0.754003896,9.479113271,-0.334311753,7.83697932,0,629.5057585,255.1866502
0.76233723,9.580689634,-0.344273783,8.19599145,0,689.2788807,255.309425
0.770670563,9.686454713,-0.344273783,8.19599145,0,609.4118253,255.1457251
0.779003896,9.791172613,-0.394083933,8.22585588,0,710.2139799,255.2685002
0.78733723,9.895890513,-0.394083933,8.22585588,0,707.083034,255.1866502
0.795670563,10.00060841,-0.443894083,8.45517751,0,637.099911,255.4321989
0.804003896,10.10532631,-0.443894083,8.45517751,0,721.0466503,255.1866502
0.81233723,10.21109139,-0.423970023,8.69454781,0,689.1383325,255.2685002
0.820670563,10.31580929,-0.423970023,8.69454781,0,721.4818848,255.2275753
0.829003896,10.42052719,-0.463818143,9.25298465,0,687.2202418,255.1457251
0.83733723,10.52524509,-0.463818143,9.25298465,0,697.384592,255.1047998
0.845670563,10.62996299,-0.573400473,9.01351688,0,778.0035611,255.3912744
0.854003897,10.73468089,-0.573400473,9.01351688,0,692.7105758,255.3503498
0.86233723,10.84044597,-0.573400473,9.01351688,0,729.0203199,255.3503498
0.870670563,10.94516387,-0.483742203,9.50228449,0,805.8114633,255.309425
0.879003896,11.04988177,-0.483742203,9.50228449,0,800.3992677,255.2685002
0.88733723,11.15564685,-0.414007993,9.24306594,0,816.9038066,255.2275753
0.895670563,11.26036475,-0.414007993,9.24306594,0,770.2258786,255.2275753
0.904003897,11.36508265,-0.423970023,9.21313653,0,826.4449561,255.2275753
0.91233723,11.46665901,-0.423970023,9.21313653,0,761.558409,255.1866502
0.920670563,11.57137691,-0.503666263,10.39982023,0,795.0049413,255.3503498
0.929003896,11.67609481,-0.503666263,10.39982023,0,779.6339375,255.3503498
0.93733723,11.78081271,-0.463818143,10.04084059,0,808.7441366,255.1866502
0.945670563,11.88657779,-0.463818143,10.04084059,0,848.0446056,255.3503498
0.954003897,11.99129569,-0.513628293,10.32999938,0,808.4257451,255.3503498
0.96233723,12.09601359,-0.513628293,10.32999938,0,818.3408646,255.2685002
0.970670563,12.20073149,-0.533552353,10.49951634,0,858.5141084,255.2275753
0.979003896,12.30544939,-0.533552353,10.49951634,0,837.4863229,255.2275753
0.98733723,12.41016729,-0.573400473,10.39974442,0,843.5814491,255.2685002
0.995670563,12.51488519,-0.573400473,10.39974442,0,895.3594233,255.1866502
1.004003896,12.61960309,-0.573400473,10.39974442,0,874.0003165,255.1047998
1.01233723,12.72432099,-0.633172653,10.73875668,0,862.6302492,255.1047998
1.020670563,12.83008607,-0.633172653,10.73875668,0,842.8507835,255.1457251
1.029003896,12.93480397,-0.533552353,11.02807792,0,891.3405967,255.1457251
1.03733723,13.03952187,-0.533552353,11.02807792,0,890.2628723,255.3503498
1.045670563,13.14423977,-0.623210623,11.40694913,0,941.7349736,255.0638745
1.054003896,13.24895767,-0.623210623,11.40694913,0,918.3625792,255.2685002
1.06233723,13.35367557,-0.663058743,11.69611875,0,949.0307797,255.1457251
1.070670563,13.45944065,-0.663058743,11.69611875,0,942.987675,255.3912744
1.079003896,13.56415855,-0.663058743,11.70609161,0,909.3995274,255.2685002
1.08733723,13.66887645,-0.663058743,11.70609161,0,909.3886223,255.2275753
1.095670563,13.77359435,-0.653096713,12.14823257,0,929.4695317,255.1866502
1.104003896,13.87831225,-0.653096713,12.14823257,0,938.0611204,255.2685002
1.11233723,13.98303015,-0.653096713,12.14823257,0,983.3219449,255.2275753
1.120670563,14.08879523,-0.653096713,12.14823257,0,942.0518817,255.1047998
1.129003896,14.19351313,-0.653096713,12.14823257,0,1003.650716,255.2275753
1.13733723,14.29823103,-0.643134683,12.67348069,0,999.3658206,255.2275753
1.145670563,14.39980739,-0.643134683,12.67348069,0,965.375573,255.2275753
1.154003896,14.50452529,-0.613248593,12.88294324,0,1035.142858,255.2685002
1.16233723,14.60924319,-0.613248593,12.88294324,0,998.6396312,255.1866502
1.170670563,14.71396109,-0.593324533,12.40426762,0,1042.122199,255.2685002
1.179003896,14.81867899,-0.593324533,12.40426762,0,1036.67809,255.2685002
1.18733723,14.92339689,-0.533552353,12.43425118,0,995.1348861,255.2685002
1.195670563,15.02811479,-0.533552353,12.43425118,0,1005.299281,255.309425
1.204003896,15.13283269,-0.533552353,12.43425118,0,1048.729967,255.2685002
1.21233723,15.23859777,-0.603286563,12.98600696,0,1063.437507,255.1047998
1.220670563,15.34226849,-0.603286563,12.98600696,0,1087.632418,255.3912744
1.229003897,15.44698639,-0.543514383,12.77331759,0,1046.267713,255.2275753
1.23733723,15.55275147,-0.543514383,12.77331759,0,1035.373275,255.309425
1.245670563,15.65746937,-0.543514383,13.37168919,0,1064.077381,255.2275753
1.254003896,15.76218727,-0.543514383,13.37168919,0,1102.747748,255.4731233
1.26233723,15.86690517,-0.623210623,13.88021841,0,1077.677825,255.309425
1.270670563,15.97162307,-0.623210623,13.88021841,0,1113.370985,255.2685002
1.279003897,16.07738815,-0.523590323,13.24206367,0,1057.587501,255.1457251
1.28733723,16.18210605,-0.523590323,13.24206367,0,1055.061647,255.4731233
1.295670563,16.28682395,-0.623210623,13.86027269,0,1150.334205,255.2275753
1.304003896,16.39154185,-0.623210623,13.86027269,0,1107.586367,255.1866502
1.31233723,16.49625975,-0.643134683,13.64084811,0,1063.244478,255.2685002
1.320670563,16.60097765,-0.643134683,13.64084811,0,1171.06405,255.3503498
1.329003897,16.70569555,-0.643134683,13.64084811,0,1124.99496,255.2685002
1.33733723,16.81146063,-0.593324533,14.28913816,0,1144.992083,255.309425
1.345670563,16.91617853,-0.593324533,14.28913816,0,1129.880389,255.2275753
1.354003896,17.01880207,-0.513628293,14.06982188,0,1164.424191,255.2685002
1.36233723,17.12351997,-0.513628293,14.06982188,0,1158.287611,255.2275753
1.370670563,17.22823787,-0.523590323,14.34905113,0,1200.414751,255.2685002
1.379003896,17.33295577,-0.523590323,14.34905113,0,1153.433086,255.2685002
1.38733723,17.43767367,-0.573400473,14.66214478,0,1196.043408,255.2685002
1.395670563,17.54239157,-0.573400473,14.66214478,0,1207.55363,255.309425
1.404003896,17.64710947,-0.573400473,14.7179928,0,1187.432331,255.3912744
1.41233723,17.75287455,-0.573400473,14.7179928,0,1224.05161,255.3912744
1.420670563,17.85759245,-0.593324533,15.3263156,0,1237.400151,255.2685002
1.429003896,17.96231035,-0.593324533,15.3263156,0,1180.290866,255.2685002
1.43733723,18.06702825,-0.563438443,14.87756939,0,1211.761572,255.3503498
1.445670563,18.17174615,-0.563438443,14.87756939,0,1221.282246,255.2685002
1.454003896,18.27646405,-0.563438443,14.87756939,0,1275.201564,255.309425
1.46233723,18.38222913,-0.583362503,15.18670639,0,1313.861624,255.3912744
1.470670563,18.48694703,-0.583362503,15.18670639,0,1264.356548,255.2685002
1.479003896,18.59166493,-0.483742203,15.35635331,0,1253.239733,255.2275753
1.48733723,18.69638283,-0.483742203,15.35635331,0,1277.185782,255.3912744
1.495670563,18.80110073,-0.653096713,15.21654916,0,1279.266224,255.3503498
1.504003896,18.90581863,-0.653096713,15.21654916,0,1274.989988,255.3503498
1.51233723,19.01053653,-0.673020773,16.34346068,0,1281.194322,255.3503498
1.520670563,19.11525443,-0.673020773,16.34346068,0,1280.817952,255.1047998
1.529003896,19.22101951,-0.593324533,15.96457864,0,1289.95455,255.1866502
1.53733723,19.32573741,-0.593324533,15.96457864,0,1263.207166,255.309425
1.545670563,19.43045531,-0.583362503,16.12581737,0,1315.662928,255.2685002
1.554003896,19.53517321,-0.583362503,16.12581737,0,1331.249144,255.2685002
1.56233723,19.63989111,-0.533552353,16.43336804,0,1335.027195,255.3912744
1.570670563,19.74460901,-0.533552353,16.43336804,0,1347.680008,255.3912744
1.579003896,19.84932691,-0.692944833,16.66257054,0,1328.469149,255.3912744
1.58733723,19.95404481,-0.692944833,16.66257054,0,1394.928712,255.3503498
1.595670563,20.05876271,-0.692944833,16.66257054,0,1391.998995,255.5140476
1.604003897,20.16348061,-0.752717013,16.53285838,0,1379.848993,255.2685002
1.61233723,20.26505697,-0.752717013,16.53285838,0,1416.815787,255.1866502
1.620670563,20.36977487,-0.702906863,16.94179979,0,1395.726957,255.1866502
1.629003896,20.47553995,-0.702906863,16.94179979,0,1415.367921,255.1866502
1.63733723,20.58025785,-0.742754983,17.54012807,0,1467.877869,255.2275753
1.645670563,20.68497575,-0.742754983,17.54012807,0,1443.275389,255.1047998
1.654003897,20.78969365,-0.583362503,16.98182119,0,1403.304832,255.2275753
1.66233723,20.89441155,-0.583362503,16.98182119,0,1468.839507,255.2685002
1.670670563,20.99912945,-0.732792953,17.35065456,0,1496.390277,255.1866502
1.679003896,21.10489453,-0.732792953,17.35065456,0,1377.474928,255.2685002
1.68733723,21.20961243,-0.762679043,18.24817947,0,1425.98997,255.3503498
1.695670563,21.31433033,-0.762679043,18.24817947,0,1484.025785,255.4321989
1.704003897,21.41904823,-0.732792953,18.01883618,0,1472.976564,255.309425
1.71233723,21.52376613,-0.732792953,18.01883618,0,1502.657692,255.309425
1.720670563,21.62848403,-0.802527163,17.72954743,0,1461.99861,255.309425
1.729003896,21.73320193,-0.802527163,17.72954743,0,1526.457759,255.1866502
1.73733723,21.83896701,-0.782603103,18.47753359,0,1515.679596,255.3912744
1.745670563,21.94368491,-0.782603103,18.47753359,0,1488.034159,255.1047998
1.754003896,22.04840281,-0.752717013,18.65707756,0,1512.372298,255.3912744
1.76233723,22.15312071,-0.752717013,18.65707756,0,1565.747898,255.309425
1.770670563,22.25783861,-0.752717013,18.65707756,0,1518.063926,255.1457251
1.779003896,22.36255651,-0.712868893,18.35793508,0,1535.697987,255.1866502
1.78733723,22.46727441,-0.712868893,18.35793508,0,1556.350668,255.3912744
1.795670563,22.57199231,-0.822451223,18.88637753,0,1539.031102,255.309425
1.804003896,22.67775739,-0.822451223,18.88637753,0,1572.288244,255.3503498
1.81233723,22.78247529,-0.852337313,18.83648074,0,1500.442702,255.2275753
1.820670563,22.88719319,-0.852337313,18.83648074,0,1557.203579,255.309425
1.829003896,22.99191109,-0.842375283,19.19551453,0,1552.120389,255.309425
1.83733723,23.09662899,-0.842375283,19.19551453,0,1611.39535,255.5140476
1.845670563,23.20134689,-0.762679043,19.56459699,0,1643.405137,255.1866502
1.854003896,23.30711197,-0.762679043,19.56459699,0,1564.479223,255.2275753
1.86233723,23.40764115,-0.782603103,19.20555237,0,1591.300691,255.309425
1.870670563,23.51235905,-0.782603103,19.20555237,0,1588.854588,255.2685002
1.879003896,23.61812413,-0.742754983,19.90369589,0,1593.619989,255.3912744
1.88733723,23.72284203,-0.742754983,19.90369589,0,1638.161392,255.2685002
1.895670563,23.82755993,-0.822451223,19.86371781,0,1650.678361,255.3912744
1.904003896,23.93227783,-0.822451223,19.86371781,0,1661.267631,255.1866502
1.91233723,24.03699573,-0.822451223,19.86371781,0,1652.266245,255.1866502
1.920670563,24.14171363,-0.832413253,20.25431066,0,1680.469097,255.2685002
1.929003896,24.24643153,-0.832413253,20.25431066,0,1678.247835,255.2685002
1.93733723,24.35114943,-0.802527163,20.54189395,0,1671.743329,255.309425
1.945670563,24.45691451,-0.802527163,20.54189395,0,1676.569545,255.1047998
1.954003896,24.56163241,-0.882223403,21.18007035,0,1635.79729,255.2275753
1.96233723,24.66635031,-0.882223403,21.18007035,0,1726.054825,255.4321989
1.970670563,24.77106821,-0.872261373,20.74127534,0,1668.302151,255.2685002
1.979003897,24.87578611,-0.872261373,20.74127534,0,1690.429764,255.2275753
1.98733723,24.98050401,-0.862299343,20.30248033,0,1726.019136,255.2275753
1.995670563,25.08522191,-0.862299343,20.30248033,0,1722.630972,255.5140476
2.004003896,25.18993981,-0.812489193,21.05049898,0,1745.623764,255.1866502
2.01233723,25.29465771,-0.812489193,21.05049898,0,1672.924781,255.1866502
2.020670563,25.39937561,-0.872261373,21.51915842,0,1746.708364,255.1866502
2.029003897,25.50409351,-0.872261373,21.51915842,0,1707.565767,255.309425
2.03733723,25.60985859,-0.782603103,20.91091143,0,1747.513275,255.309425
2.045670563,25.71457649,-0.782603103,20.91091143,0,1724.454813,255.4321989
2.054003896,25.81929439,-0.782603103,20.91091143,0,1721.690805,255.1866502
2.06233723,25.92401229,-0.892185433,21.6587568,0,1787.430191,255.309425
2.070670563,26.02873019,-0.892185433,21.6587568,0,1779.761596,255.2685002
2.079003897,26.13449527,-0.872261373,21.32967408,0,1779.460932,255.2685002
2.08733723,26.23921317,-0.872261373,21.32967408,0,1779.625553,255.2275753
2.095670563,26.34393107,-0.872261373,21.93801854,0,1766.025238,255.2685002
2.104003896,26.44864897,-0.872261373,21.93801854,0,1825.5196,255.4321989
2.11233723,26.55336687,-0.951957613,21.9379319,0,1792.137355,255.3503498
2.120670563,26.65808477,-0.951957613,21.9379319,0,1821.039116,255.3912744
2.129003896,26.76280267,-0.981843703,22.01768229,0,1874.684686,255.3503498
2.13733723,26.86856775,-0.981843703,22.01768229,0,1825.381448,255.2685002
2.145670563,26.97328565,-0.872261373,22.38679724,0,1875.245029,255.2275753
2.154003896,27.07486201,-0.872261373,22.38679724,0,1861.084802,255.2275753
2.16233723,27.17957991,-0.941995583,22.32688427,0,1885.400234,255.3503498
2.170670563,27.28429781,-0.941995583,22.32688427,0,1854.885561,255.1866502
2.179003896,27.38901571,-0.932033553,22.69589092,0,1871.478147,255.0638745
2.18733723,27.49373361,-0.932033553,22.69589092,0,1857.723934,255.2275753
2.195670563,27.59845151,-0.932033553,22.69589092,0,1877.265723,255.3503498
2.204003896,27.70316941,-1.021691823,23.06811356,0,1897.087409,255.309425
