Time,Cum. Inj. Water,Cum Prod Water,Cum. Oil Prod. ,Cum. Inj CO2,Cum. Prod Gas,Pressure
(hrs),(rml),ml,(sep_ml),(rml),(std.cc),atm
0.000,0.000,0.000,0.000,0.000,0.000,296.311
0.013,0.163,0.047,0.669,0.000,3.575,296.311
0.030,0.374,-0.202,0.509,0.000,56.659,296.311
0.046,0.583,0.286,0.360,0.000,36.351,296.311
0.063,0.793,-0.392,0.997,0.000,68.742,296.352
0.080,1.002,0.047,0.549,0.000,112.838,296.230
0.096,1.213,-0.322,1.366,0.000,102.855,296.393
0.113,1.419,0.126,1.157,0.000,124.464,296.433
0.130,1.630,0.096,1.118,0.000,135.866,296.311
0.146,1.839,-0.073,2.025,0.000,113.120,296.311
0.163,2.049,-0.143,2.504,0.000,154.928,296.311
0.180,2.259,-0.192,2.254,0.000,185.348,296.352
0.196,2.469,-0.282,2.583,0.000,188.581,296.311
0.213,2.679,-0.402,2.583,0.000,234.966,296.311
0.230,2.888,-0.362,2.154,0.000,250.451,296.230
0.246,3.096,-0.362,2.154,0.000,271.304,296.230
0.263,3.305,0.126,2.564,0.000,257.078,296.311
0.280,3.515,-0.093,2.813,0.000,310.152,296.352
0.296,3.724,-0.312,2.803,0.000,339.328,296.311
0.313,3.934,-0.013,3.132,0.000,335.468,296.352
0.330,4.144,-0.003,2.923,0.000,354.337,296.352
0.346,4.354,-0.202,4.129,0.000,360.887,296.270
0.363,4.564,-0.143,3.880,0.000,400.550,296.352
0.380,4.774,-0.023,3.451,0.000,422.287,296.352
0.396,4.983,0.037,3.760,0.000,409.941,296.311
0.413,5.192,-0.392,4.458,0.000,412.465,296.393
0.430,5.403,0.086,3.581,0.000,478.318,296.230
0.446,5.612,-0.252,4.618,0.000,462.972,296.433
0.463,5.823,-0.003,4.588,0.000,492.055,296.474
0.480,6.029,-0.003,4.588,0.000,529.410,296.393
0.496,6.239,-0.053,4.518,0.000,536.659,296.352
0.513,6.448,-0.113,5.146,0.000,532.648,296.352
0.530,6.658,-0.232,5.222,0.000,569.629,296.311
0.546,6.868,-0.023,5.212,0.000,626.119,296.393
0.563,7.078,0.166,5.406,0.000,606.730,296.311
0.580,7.287,-0.232,5.525,0.000,607.933,296.433
0.596,7.496,-0.163,5.745,0.000,644.970,296.433
0.613,7.707,-0.212,6.273,0.000,640.810,296.311
0.630,7.916,-0.013,6.493,0.000,636.523,296.311
0.646,8.127,-0.412,6.552,0.000,687.951,296.433
0.663,8.336,-0.103,6.303,0.000,681.305,296.230
0.680,8.546,-0.252,7.041,0.000,740.697,296.270
0.696,8.756,-0.282,6.988,0.000,731.360,296.311
0.713,8.963,-0.382,6.702,0.000,776.909,296.270
0.730,9.172,-0.262,7.799,0.000,762.952,296.352
0.746,9.382,-0.262,7.799,0.000,791.025,296.352
0.763,9.591,-0.103,7.350,0.000,840.308,296.311
0.780,9.802,-0.242,7.500,0.000,820.387,296.433
0.796,10.011,-0.192,7.929,0.000,832.742,296.352
0.813,10.221,-0.153,7.769,0.000,870.102,296.352
0.830,10.431,-0.173,8.278,0.000,892.111,296.393
0.846,10.642,-0.143,8.281,0.000,891.960,296.433
0.863,10.851,0.017,8.457,0.000,871.051,296.515
0.880,11.060,0.047,8.238,0.000,923.744,296.230
0.896,11.270,-0.053,8.667,0.000,962.442,296.433
0.913,11.479,-0.202,9.195,0.000,993.173,296.311
0.930,11.689,0.126,8.448,0.000,1001.358,296.352
0.946,11.899,-0.003,8.926,0.000,1066.608,296.433
0.963,12.106,-0.133,9.664,0.000,1021.244,296.352
0.980,12.315,-0.222,9.594,0.000,1065.545,296.270
0.996,12.525,-0.222,9.594,0.000,1066.997,296.393
1.013,12.735,-0.222,9.983,0.000,1097.683,296.433
1.030,12.945,0.236,9.644,0.000,1084.071,296.393
1.046,13.154,-0.043,9.993,0.000,1132.664,296.352
1.063,13.365,-0.163,10.173,0.000,1170.313,296.474
1.080,13.574,-0.103,10.512,0.000,1166.428,296.311
1.096,13.784,-0.402,11.269,0.000,1173.055,296.393
1.113,13.994,-0.173,11.110,0.000,1185.818,296.433
1.130,14.203,-0.292,11.100,0.000,1216.928,296.311
1.146,14.413,-0.332,11.499,0.000,1245.316,296.393
1.163,14.619,-0.352,11.618,0.000,1221.640,296.270
1.180,14.830,-0.153,11.258,0.000,1251.397,296.311
1.196,15.039,0.067,10.991,0.000,1299.068,296.352
1.213,15.250,-0.242,11.469,0.000,1305.224,296.108
1.230,15.459,-0.322,12.043,0.000,1323.686,296.311
1.246,15.669,-0.322,12.043,0.000,1317.858,296.352
1.263,15.879,-0.432,12.516,0.000,1342.386,296.148
1.280,16.090,-0.242,12.416,0.000,1365.744,296.433
1.296,16.299,-0.501,12.566,0.000,1359.424,296.474
1.313,16.509,-0.561,13.334,0.000,1402.179,296.311
1.330,16.718,-0.083,12.556,0.000,1423.871,296.433
1.346,16.924,-0.282,13.336,0.000,1442.571,296.393
1.363,17.134,-0.212,13.693,0.000,1451.277,296.270
1.380,17.344,-0.173,13.912,0.000,1442.447,296.433
1.396,17.554,-0.013,13.803,0.000,1469.280,296.311
1.413,17.763,-0.362,14.032,0.000,1507.106,296.433
1.430,17.974,-0.372,14.102,0.000,1514.083,296.352
1.446,18.184,-0.222,13.733,0.000,1529.157,296.352
1.463,18.394,-0.202,14.491,0.000,1548.377,296.352
1.480,18.603,-0.063,13.952,0.000,1574.841,296.352
1.496,18.814,-0.093,14.152,0.000,1609.897,296.270
1.513,19.022,-0.093,14.152,0.000,1616.739,296.230
1.530,19.233,-0.292,14.820,0.000,1630.573,296.352
1.546,19.442,-0.043,14.526,0.000,1641.874,296.311
1.563,19.648,-0.372,15.149,0.000,1659.952,296.311
1.580,19.859,-0.302,15.149,0.000,1676.659,296.474
1.596,20.068,-0.183,14.980,0.000,1700.074,296.311
1.613,20.279,0.166,15.259,0.000,1704.937,296.189
1.630,20.488,-0.242,15.249,0.000,1716.076,296.433
1.646,20.699,-0.262,15.598,0.000,1755.726,296.270
1.663,20.908,-0.212,16.465,0.000,1768.527,296.433
1.680,21.118,-0.163,16.186,0.000,1762.326,296.352
1.696,21.328,-0.173,16.655,0.000,1785.448,296.230
1.713,21.538,-0.043,16.845,0.000,1820.281,296.474
1.730,21.744,-0.023,16.944,0.000,1822.675,296.270
1.746,21.953,-0.043,17.194,0.000,1842.884,296.311
1.763,22.163,-0.043,17.194,0.000,1836.211,296.311
1.780,22.372,-0.272,17.423,0.000,1851.238,296.270
1.796,22.583,0.027,17.373,0.000,1907.174,296.393
1.813,22.792,-0.023,17.792,0.000,1917.030,296.352
1.830,23.002,-0.043,17.912,0.000,1909.013,296.433
1.846,23.211,-0.242,18.332,0.000,1949.142,296.311
1.863,23.421,-0.392,18.889,0.000,1969.437,296.270
1.880,23.631,-0.033,18.729,0.000,1968.086,296.352
1.896,23.841,-0.093,18.400,0.000,1992.796,296.352
1.913,24.050,-0.192,18.659,0.000,2008.328,296.352
1.930,24.260,-0.272,19.627,0.000,2027.148,296.352
1.946,24.470,-0.232,19.916,0.000,2065.307,296.148
1.963,24.680,-0.073,19.497,0.000,2045.698,296.270
1.980,24.889,0.007,19.846,0.000,2069.547,296.270
1.996,25.098,-0.043,20.305,0.000,2106.314,296.311
2.013,25.309,-0.043,20.305,0.000,2141.140,296.393
2.030,25.515,-0.521,20.654,0.000,2136.964,296.393
2.046,25.726,0.156,20.226,0.000,2188.006,296.393
2.063,25.935,-0.053,20.714,0.000,2161.254,296.393
2.080,26.145,-0.153,20.983,0.000,2171.097,296.474
2.096,26.355,0.017,20.754,0.000,2195.534,296.270
2.113,26.565,0.007,20.804,0.000,2221.874,296.352
2.130,26.774,-0.113,21.612,0.000,2218.320,296.270
2.146,26.985,-0.312,21.272,0.000,2266.737,296.311
2.163,27.194,-0.252,21.083,0.000,2276.176,296.433
2.180,27.404,-0.302,22.020,0.000,2316.062,296.311
2.196,27.613,-0.511,22.289,0.000,2316.397,296.230
2.213,27.824,-0.192,22.499,0.000,2333.046,296.393
2.230,28.030,-0.302,22.180,0.000,2352.797,296.515
2.246,28.239,-0.103,22.050,0.000,2369.865,296.230
2.263,28.449,-0.103,22.050,0.000,2387.683,296.352
2.280,28.658,-0.212,22.260,0.000,2381.930,296.352
2.296,28.868,-0.232,22.978,0.000,2406.503,296.311
2.313,29.078,-0.372,22.798,0.000,2438.271,296.270
2.330,29.289,-0.113,22.888,0.000,2441.127,296.393
2.346,29.498,-0.013,23.167,0.000,2456.550,296.230
2.363,29.708,-0.541,23.739,0.000,2493.451,296.352
2.380,29.917,0.017,23.676,0.000,2510.067,296.596
2.396,30.127,-0.023,23.776,0.000,2506.834,296.556
2.413,30.336,-0.183,23.566,0.000,2558.935,296.352
2.430,30.547,-0.292,23.835,0.000,2547.602,296.311
2.446,30.756,-0.192,24.155,0.000,2574.733,296.352
2.463,30.966,-0.352,24.204,0.000,2572.666,296.393
2.480,31.175,-0.332,24.793,0.000,2633.915,296.270
2.496,31.384,-0.222,24.713,0.000,2629.541,296.352
2.513,31.591,-0.202,24.873,0.000,2650.550,296.352
2.530,31.801,-0.202,24.873,0.000,2645.254,296.230
2.546,32.011,-0.212,24.633,0.000,2670.107,296.270
2.563,32.220,-0.143,25.232,0.000,2689.755,296.393
2.580,32.431,-0.083,25.192,0.000,2697.928,296.433
2.596,32.640,-0.242,25.022,0.000,2739.668,296.230
2.613,32.850,-0.093,25.355,0.000,2750.830,296.311
2.630,33.059,-0.272,25.551,0.000,2741.447,296.311
2.646,33.269,-0.521,25.979,0.000,2765.628,296.393
2.663,33.479,-0.013,25.870,0.000,2776.127,296.270
2.680,33.688,-0.491,27.046,0.000,2822.082,296.311
2.696,33.899,-0.481,26.637,0.000,2828.781,296.352
2.713,34.108,-0.282,27.286,0.000,2847.189,296.352
2.730,34.318,-0.651,27.545,0.000,2857.854,296.433
2.746,34.527,-0.242,26.757,0.000,2885.615,296.352
2.763,34.738,-0.402,27.726,0.000,2881.123,296.230
2.780,34.944,-0.711,28.263,0.000,2923.083,296.393
2.796,35.154,-0.711,28.263,0.000,2941.932,296.311
2.813,35.363,-0.452,27.984,0.000,2955.008,296.311
2.830,35.573,-0.262,28.712,0.000,2977.726,296.230
2.846,35.783,-0.571,28.791,0.000,2982.153,296.311
2.863,35.992,-0.183,27.805,0.000,3020.624,296.230
2.880,36.202,-0.123,28.253,0.000,3031.094,296.393
2.896,36.411,-0.143,28.872,0.000,3048.730,296.393
2.913,36.622,-0.422,29.111,0.000,3060.978,296.393
2.930,36.831,-0.232,29.211,0.000,3082.721,296.230
2.946,37.041,-0.711,29.639,0.000,3110.064,296.148
2.963,37.250,-0.641,29.350,0.000,3102.787,296.393
2.980,37.461,-0.501,29.300,0.000,3102.242,296.311
2.996,37.670,-0.382,30.088,0.000,3124.177,296.352
3.013,37.880,-0.561,29.938,0.000,3150.479,296.230
3.030,38.090,-0.591,30.537,0.000,3166.474,296.433
3.046,38.297,-0.362,30.196,0.000,3190.303,296.270
3.063,38.506,-0.362,30.196,0.000,3209.148,296.393
3.080,38.715,-0.382,29.959,0.000,3214.387,296.352
3.096,38.925,-0.611,30.786,0.000,3253.856,296.148
3.113,39.135,-0.332,30.557,0.000,3273.680,296.311
3.130,39.345,-0.501,30.619,0.000,3267.849,296.148
3.146,39.555,-0.422,31.491,0.000,3286.677,296.352
3.163,39.765,-0.372,31.076,0.000,3303.580,296.311
3.180,39.974,-0.282,31.459,0.000,3302.451,296.189
3.196,40.185,-0.402,31.221,0.000,3323.098,296.352
3.213,40.394,-0.013,31.395,0.000,3363.735,296.474
3.230,40.602,-0.372,32.086,0.000,3369.215,296.189
3.246,40.811,-0.183,31.732,0.000,3400.778,296.352
3.263,41.021,-0.432,31.826,0.000,3430.296,296.393
3.280,41.230,-0.432,31.959,0.000,3430.296,296.393
3.296,41.439,-0.511,32.721,0.000,3446.662,296.352
3.313,41.650,-0.571,32.594,0.000,3457.471,296.433
3.330,41.859,-0.202,32.639,0.000,3499.182,296.270
3.346,42.070,-0.481,32.662,0.000,3516.794,296.270
3.363,42.279,-0.212,33.255,0.000,3541.018,296.433
3.380,42.489,-0.113,33.448,0.000,3546.677,296.393
3.396,42.699,-0.402,33.632,0.000,3557.132,296.393
3.413,42.909,-0.521,33.812,0.000,3584.963,296.270
3.430,43.116,-0.442,33.258,0.000,3613.677,296.230
3.446,43.326,-0.601,34.040,0.000,3630.768,296.352
3.463,43.535,-0.272,33.635,0.000,3641.486,296.433
3.480,43.745,-0.651,34.357,0.000,3663.866,296.393
3.496,43.954,-0.382,34.341,0.000,3693.766,296.311
3.513,44.164,-0.561,34.833,0.000,3679.064,296.311
3.530,44.373,-0.561,34.967,0.000,3700.898,296.352
3.546,44.583,-0.392,34.930,0.000,3719.342,296.311
3.563,44.793,-0.621,35.214,0.000,3724.587,296.311
3.580,45.002,-0.481,35.177,0.000,3748.151,296.515
3.596,45.213,-0.561,35.281,0.000,3757.619,296.311
3.613,45.422,-0.541,36.102,0.000,3816.230,296.433
3.630,45.632,-0.452,35.688,0.000,3792.284,296.230
3.646,45.841,-0.332,35.502,0.000,3840.342,296.311
3.663,46.052,-0.312,35.983,0.000,3818.636,296.311
3.680,46.261,-0.332,35.658,0.000,3863.369,296.556
3.696,46.471,-0.342,36.290,0.000,3869.437,296.352
3.713,46.681,-0.422,36.324,0.000,3889.886,296.311
3.730,46.891,-0.442,36.357,0.000,3913.757,296.352
3.746,47.100,-0.611,36.860,0.000,3884.544,296.311
3.763,47.310,-0.581,37.033,0.000,3934.374,296.311
3.780,47.516,-0.222,36.559,0.000,3958.034,296.393
3.796,47.725,-0.382,37.639,0.000,3995.949,296.311
3.813,47.936,-0.382,37.773,0.000,3971.035,296.352
3.830,48.145,-0.521,37.578,0.000,3999.959,296.433
3.846,48.355,-0.521,37.841,0.000,4006.550,296.474
3.863,48.565,-0.661,38.103,0.000,4056.341,296.352
3.880,48.775,-0.432,38.537,0.000,4032.820,296.393
3.896,48.985,-0.541,39.139,0.000,4068.483,296.393
3.913,49.195,-0.352,38.582,0.000,4098.250,296.311
3.930,49.404,-0.432,38.278,0.000,4143.493,296.311
3.946,49.611,-0.471,38.956,0.000,4124.638,296.393
3.963,49.821,-0.641,39.133,0.000,4144.050,296.311
3.980,50.030,-0.412,39.266,0.000,4134.342,296.352
3.996,50.239,-0.202,39.091,0.000,4153.633,296.515
4.013,50.449,-0.412,39.274,0.000,4186.359,296.433
4.030,50.659,-0.372,39.398,0.000,4200.884,296.311
4.046,50.868,-0.461,39.381,0.000,4241.937,296.352
4.063,51.078,-0.461,39.515,0.000,4232.164,296.230
4.080,51.288,-0.362,39.429,0.000,4230.812,296.393
4.096,51.498,-0.611,40.510,0.000,4255.482,296.352
4.113,51.707,-0.322,40.005,0.000,4294.355,296.393
4.130,51.917,-0.372,40.817,0.000,4293.400,296.352
4.146,52.126,-0.691,40.780,0.000,4321.227,296.352
4.163,52.337,-0.810,40.974,0.000,4321.102,296.433
4.180,52.546,-0.531,41.057,0.000,4343.875,296.393
4.196,52.756,-0.362,40.960,0.000,4362.198,296.352
4.213,52.966,-0.711,41.651,0.000,4383.481,296.393
4.230,53.172,-0.601,41.106,0.000,4406.788,296.352
4.246,53.385,-0.292,41.590,0.000,4409.405,296.433
4.263,53.591,-0.621,41.673,0.000,4431.851,296.352
4.280,53.801,-0.192,41.577,0.000,4433.550,296.352
4.296,54.011,-0.192,41.711,0.000,4434.339,296.311
4.313,54.221,-0.302,42.273,0.000,4490.914,296.474
4.330,54.430,-0.402,42.407,0.000,4500.354,296.393
4.346,54.640,-0.442,42.410,0.000,4490.951,296.311
4.363,54.849,-0.720,43.053,0.000,4526.883,296.515
4.380,55.060,-0.551,42.697,0.000,4522.967,296.393
4.396,55.269,-0.541,42.951,0.000,4537.517,296.230
4.413,55.479,-0.402,43.293,0.000,4553.600,296.311
4.430,55.689,-0.372,42.739,0.000,4542.617,296.433
4.446,55.899,-0.481,43.112,0.000,4635.451,296.393
4.463,56.108,-0.272,43.256,0.000,4597.170,296.393
4.480,56.317,-0.412,43.957,0.000,4645.282,296.311
4.496,56.528,-0.461,43.692,0.000,4644.717,296.393
4.513,56.737,-0.551,44.234,0.000,4658.013,296.311
4.530,56.947,-0.551,44.365,0.000,4691.828,296.433
4.546,57.153,-0.362,44.529,0.000,4693.133,296.433
4.563,57.363,-0.452,44.462,0.000,4733.296,296.474
4.580,57.573,-0.621,44.467,0.000,4728.896,296.311
4.596,57.783,-0.671,44.839,0.000,4736.396,296.433
4.613,57.992,-0.332,44.824,0.000,4746.102,296.433
4.630,58.202,-0.352,44.747,0.000,4775.756,296.433
4.646,58.411,-0.471,45.809,0.000,4799.220,296.189
4.663,58.621,-0.392,45.573,0.000,4792.575,296.352
4.680,58.831,-0.461,45.836,0.000,4825.876,296.352
4.696,59.040,-0.432,45.989,0.000,4827.932,296.352
4.713,59.250,-0.511,46.095,0.000,4849.477,296.189
4.730,59.460,-0.641,46.446,0.000,4853.967,296.433
4.746,59.670,-0.491,45.951,0.000,4907.763,296.352
4.763,59.878,-0.491,46.084,0.000,4918.325,296.393
4.780,60.089,-0.402,46.656,0.000,4905.370,296.433
4.796,60.298,-0.402,46.870,0.000,4949.768,296.433
4.813,60.508,-0.481,46.844,0.000,4915.087,296.311
4.830,60.717,-0.153,46.038,0.000,4959.298,296.311
4.846,60.928,-0.452,47.308,0.000,4964.898,296.433
4.863,61.134,-0.671,47.521,0.000,4996.818,296.352
4.880,61.343,-0.372,47.076,0.000,5007.858,296.433
4.896,61.554,-0.402,47.410,0.000,5011.981,296.393
4.913,61.763,-0.551,47.823,0.000,5026.845,296.393
4.930,61.974,-0.491,47.457,0.000,5072.895,296.393
4.946,62.183,-0.382,47.542,0.000,5078.298,296.352
4.963,62.393,-0.292,47.815,0.000,5072.696,296.393
4.980,62.603,-0.521,47.938,0.000,5107.673,296.352
4.996,62.813,-0.352,48.143,0.000,5121.704,296.556
5.013,63.022,-0.312,48.243,0.000,5131.843,296.352
5.030,63.233,-0.312,48.377,0.000,5144.924,296.352
5.046,63.439,-0.571,48.989,0.000,5168.464,296.352
5.063,63.649,-0.332,48.903,0.000,5186.495,296.311
5.080,63.859,-0.581,49.166,0.000,5207.310,296.311
5.096,64.068,-0.422,49.380,0.000,5214.481,296.270
5.113,64.278,-0.511,49.513,0.000,5225.537,296.352
5.130,64.487,-0.521,49.587,0.000,5241.239,296.352
5.146,64.697,-0.432,49.660,0.000,5262.224,296.433
5.163,64.906,-0.711,50.133,0.000,5315.080,296.270
5.180,65.117,-0.601,50.396,0.000,5292.490,296.148
5.196,65.326,-0.452,50.081,0.000,5304.401,296.393
5.213,65.536,-0.581,50.722,0.000,5343.662,296.311
5.230,65.745,-0.621,50.866,0.000,5331.442,296.352
5.246,65.956,-0.621,50.999,0.000,5340.500,296.270
5.263,66.165,-0.402,50.894,0.000,5364.708,296.474
5.280,66.375,-0.651,51.476,0.000,5366.418,296.433
5.296,66.584,-0.382,51.371,0.000,5418.295,296.433
5.313,66.791,-0.651,51.541,0.000,5421.853,296.311
5.330,67.001,-0.262,51.895,0.000,5437.258,296.311
5.346,67.210,-0.621,52.008,0.000,5445.413,296.474
5.363,67.421,-0.521,51.952,0.000,5483.014,296.515
5.380,67.630,-0.541,51.996,0.000,5470.767,296.311
5.396,67.840,-0.561,52.459,0.000,5505.932,296.433
5.413,68.049,-0.212,52.443,0.000,5490.695,296.311
5.430,68.259,-0.651,52.666,0.000,5509.946,296.311
5.446,68.469,-0.491,52.481,0.000,5545.343,296.352
5.463,68.679,-0.750,53.110,0.000,5578.556,296.433
5.480,68.889,-0.750,53.244,0.000,5577.055,296.270
5.496,69.099,-0.471,53.028,0.000,5577.371,296.311
5.513,69.307,-0.541,53.173,0.000,5599.418,296.393
5.530,69.518,-0.631,53.696,0.000,5650.370,296.433
5.546,69.727,-0.392,53.339,0.000,5639.147,296.433
5.563,69.933,-0.651,53.682,0.000,5636.760,296.393
5.580,70.144,-0.432,54.365,0.000,5655.471,296.311
5.596,70.353,-0.631,54.109,0.000,5662.290,296.352
5.613,70.563,-0.591,54.720,0.000,5688.568,296.556
5.630,70.772,-0.501,54.515,0.000,5714.583,296.433
5.646,70.982,-0.651,54.548,0.000,5760.116,296.270
5.663,71.191,-0.452,54.752,0.000,5740.011,296.352
5.680,71.402,-0.471,54.855,0.000,5777.576,296.393
5.696,71.611,-0.950,55.318,0.000,5783.917,296.433
5.713,71.821,-0.671,55.204,0.000,5830.796,296.352
5.730,72.030,-0.671,55.338,0.000,5806.389,296.311
5.746,72.240,-0.800,55.559,0.000,5824.302,296.230
5.763,72.450,-0.661,55.812,0.000,5863.418,296.270
5.780,72.659,-0.551,55.189,0.000,5861.073,296.352
5.796,72.870,-0.372,55.821,0.000,5899.069,296.311
5.813,73.079,-0.382,55.363,0.000,5900.612,296.474
5.830,73.290,-0.402,56.095,0.000,5906.667,296.433
5.846,73.496,-0.252,56.329,0.000,5907.388,296.230
5.863,73.706,-0.362,56.871,0.000,5943.748,296.311
5.880,73.916,-0.432,56.945,0.000,5961.180,296.270
5.896,74.126,-0.402,56.311,0.000,5979.295,296.352
5.913,74.335,-0.531,57.282,0.000,5995.317,296.393
5.930,74.546,-0.631,57.385,0.000,6019.916,296.393
5.946,74.755,-0.402,57.252,0.000,6007.708,296.352
5.963,74.965,-0.402,57.386,0.000,6034.765,296.270
5.980,75.175,-0.342,57.605,0.000,6033.427,296.311
5.996,75.385,-0.511,58.107,0.000,6095.815,296.270
6.013,75.594,-0.551,57.772,0.000,6083.053,296.311
6.030,75.800,-0.362,58.224,0.000,6114.267,296.393
6.046,76.011,-0.442,58.029,0.000,6085.606,296.230
6.063,76.220,-0.422,58.321,0.000,6149.587,296.230
6.080,76.430,-0.551,58.515,0.000,6153.638,296.270
6.096,76.639,-0.541,58.917,0.000,6158.040,296.311
6.113,76.849,-0.342,58.912,0.000,6185.657,296.433
6.130,77.058,-0.282,58.816,0.000,6210.922,296.270
6.146,77.268,-0.581,58.860,0.000,6204.359,296.270
6.163,77.478,-0.481,59.641,0.000,6238.270,296.270
6.180,77.688,-0.422,58.698,0.000,6259.424,296.311
6.196,77.898,-0.422,58.831,0.000,6283.202,296.352
6.213,78.108,-0.501,59.344,0.000,6284.464,296.393
6.230,78.318,-0.531,60.035,0.000,6300.143,296.352
6.246,78.528,-0.392,60.397,0.000,6321.358,296.311
6.263,78.737,-0.322,59.433,0.000,6352.847,296.352
6.280,78.946,-0.461,60.165,0.000,6337.214,296.311
6.296,79.156,-0.422,60.827,0.000,6357.252,296.270
6.313,79.363,-0.282,60.542,0.000,6393.917,296.352
6.330,79.573,-0.442,60.753,0.000,6393.901,296.311
6.346,79.782,-0.412,60.729,0.000,6447.879,296.393
6.363,79.992,-0.372,61.241,0.000,6425.719,296.393
6.380,80.201,-0.312,60.627,0.000,6443.540,296.311
6.396,80.412,-0.481,61.080,0.000,6466.592,296.393
6.413,80.621,-0.252,61.562,0.000,6476.769,296.270
6.430,80.832,-0.252,61.696,0.000,6494.867,296.270
6.446,81.041,-0.471,61.737,0.000,6518.459,296.352
6.463,81.251,-0.442,61.921,0.000,6564.715,296.352
6.480,81.461,-0.242,61.755,0.000,6553.984,296.393
6.496,81.670,-0.471,62.547,0.000,6574.624,296.311
6.513,81.877,-0.511,62.890,0.000,7368.386,296.148
6.530,82.087,-0.860,62.565,0.000,7657.109,296.230
