CO2 Time,Total Time,Cum. Inj. Water,Cum Prod Water,Cum. Oil Prod. ,Cum. Inj CO2,Cum. Prod Gas, CH Pressure
(hrs),(hrs),(rml),ml,(sep_ml),(rml),(std.cc),atm
0,361.5381706,4095.597751,3044.416325,719.379535,0,69755.57105,255.804121
0.011394572,361.5495651,4095.597751,3044.511676,720.3470541,0.119560212,69771.69194,255.8449564
0.028339017,361.5665096,4095.597751,3044.671069,719.3399685,0.294439105,69727.72711,255.804121
0.045005683,361.5831762,4095.597751,3044.92012,719.6527222,0.469317998,69739.01707,255.9266268
0.06167235,361.5998429,4095.597751,3044.940044,719.7491481,0.644196891,69753.75165,255.7632856
0.078061239,361.6162318,4095.597751,3045.16917,719.7793158,0.818028605,69745.99699,255.804121
0.095005683,361.6331762,4095.597751,3045.288715,719.8891472,0.992907498,69747.12837,255.8857916
0.111394572,361.6495651,4095.597751,3045.468031,719.7098307,1.167786391,69738.40042,255.7088382
0.128339017,361.6665096,4095.597751,3045.627424,720.0590541,1.342665284,69777.36293,255.9266268
0.145005683,361.6831762,4095.597751,3045.836626,719.5207471,1.51440264,69789.52089,255.7088382
0.16167235,361.6998429,4095.597751,3045.926285,720.3485919,1.689281533,69762.02161,255.7088382
0.178339017,361.7165096,4095.597751,3046.185298,719.1321846,1.864160426,69789.16006,255.8449564
0.195005683,361.7331762,4095.597751,3046.3945,719.2820049,2.039039319,69779.63398,255.804121
0.211394572,361.7495651,4095.597751,3046.504082,719.8007128,2.212871033,69803.36943,255.7632856
0.228339017,361.7665096,4095.597751,3046.643551,719.47176,2.387749926,69810.43704,255.804121
0.244727906,361.7828985,4095.597751,3046.822867,719.5517378,2.562628819,69820.03378,255.804121
0.261394572,361.7995651,4095.597751,3046.972298,719.5751703,2.737507712,69784.28572,255.6680025
0.278339017,361.8165096,4095.597751,3047.221349,719.8114654,2.912386605,69792.20252,255.8857916
0.295005683,361.8331762,4095.597751,3047.320969,718.864152,3.087265498,69784.14217,255.8449564
0.31167235,361.8498429,4095.597751,3047.500285,719.7718772,3.262144391,69804.66977,255.6680025
0.328339017,361.8665096,4095.597751,3047.500285,719.7718772,3.437023284,69791.20912,255.804121
0.345005683,361.8831762,4095.597751,3047.76926,719.1239337,3.611902177,69784.26705,255.7632856
0.36167235,361.8998429,4095.597751,3047.928653,719.4332656,3.78678107,69774.11367,255.9266268
0.378339017,361.9165096,4095.597751,3048.098007,719.5431512,3.961659963,69775.61368,255.7632856
0.394727906,361.9328985,4095.597751,3048.267362,719.5533082,4.135491677,69788.67477,255.804121
0.41167235,361.9498429,4095.597751,3048.416792,719.2642577,4.31037057,69781.10834,255.8857916
0.428339017,361.9665096,4095.597751,3048.576185,719.5037796,4.485249463,69787.84384,255.7632856
0.444727906,361.9828985,4095.597751,3048.825235,719.5339689,4.660128356,69818.15787,255.7088382
0.461394572,361.9995651,4095.597751,3048.885008,719.8232468,4.83396007,69793.16703,255.8449564
0.478339017,362.0165096,4095.597751,3049.074286,719.6738597,5.006744605,69836.17235,255.8449564
0.494727906,362.0328985,4095.597751,3049.203793,719.3149775,5.181623498,69797.38762,255.8449564
0.511394572,362.0495651,4095.597751,3049.323337,719.5045918,5.355455212,69803.09919,255.8449564
0.528061239,362.0662318,4095.597751,3049.522578,719.3452427,5.531381284,69821.56548,255.9266268
0.545005683,362.0831762,4095.597751,3049.612236,719.9337389,5.706260177,69810.07083,255.7632856
0.56167235,362.0998429,4095.597751,3049.791552,719.7544224,5.88113907,69819.96894,255.6680025
0.578061239,362.1162318,4095.597751,3049.950945,719.375627,6.056017963,69832.50853,255.8857916
0.594727906,362.1328985,4095.597751,3050.120299,719.1464353,6.230896856,69830.49968,255.5454948
0.61167235,362.1498429,4095.597751,3050.239844,719.6452082,6.405775749,69809.76915,255.7632856
0.628339017,362.1665096,4095.597751,3050.459008,718.7877805,6.577513105,69830.89408,255.804121
0.645005684,362.1831762,4095.597751,3050.578553,719.5957122,6.752391998,69817.43985,255.7632856
0.66167235,362.1998429,4095.597751,3050.817641,719.6558092,6.927270891,69831.06167,255.804121
0.678339017,362.2165096,4095.597751,3050.887376,719.1472692,7.102149784,69833.00531,255.8449564
0.695005684,362.2331762,4095.597751,3051.05673,718.9779147,7.277028677,69856.43086,255.8449564
0.711394572,362.2495651,4095.597751,3051.176275,719.3171219,7.45190757,69852.68685,255.8857916
0.728339017,362.2665096,4095.597751,3051.365553,719.6663778,7.626786463,69866.9449,255.7088382
0.744727906,362.2828985,4095.597751,3051.54487,719.3873326,7.800618177,69821.99061,255.804121
0.76167235,362.2998429,4095.597751,3051.724186,719.4174461,7.974449891,69857.71737,255.8857916
0.778061239,362.3162318,4095.597751,3051.803882,719.7765557,8.149328784,69846.17881,255.804121
0.795005683,362.3331762,4095.597751,3052.052933,719.0787263,8.324207677,69868.95696,255.804121
0.81167235,362.3498429,4095.597751,3052.142591,719.6472768,8.49908657,69852.8638,255.804121
0.828339017,362.3665096,4095.597751,3052.341832,719.4879276,8.673965463,69853.53208,255.7088382
0.844727906,362.3828985,4095.597751,3052.4813,718.8996805,8.848844356,69849.3165,255.804121
0.861394572,362.3995651,4095.597751,3052.710427,719.9271342,9.023723249,69838.22035,255.9674618
0.878339017,362.4165096,4095.597751,3052.849896,719.3887513,9.198602142,69839.88472,255.7632856
0.895005683,362.4331762,4095.597751,3052.989364,719.7977902,9.370339498,69851.834,255.8449564
0.911394572,362.4495651,4095.597751,3053.098946,719.2892935,9.545218391,69843.44865,255.7632856
0.928339017,362.4665096,4095.597751,3053.328073,718.9305196,9.720097284,69855.29121,255.8449564
0.945005683,362.4831762,4095.597751,3053.447617,718.9505953,9.894976177,69845.37975,255.8857916
0.96167235,362.4998429,4095.597751,3053.616972,720.2273055,10.06985507,69849.13396,255.7088382
0.978061239,362.5162318,4095.597751,3053.696668,719.100459,10.24473396,69861.94057,255.8857916
0.994727906,362.5328985,4095.597751,3053.915833,719.2103987,10.41961286,69883.56395,255.804121
1.01167235,362.5498429,4095.597751,3053.985567,719.9484661,10.59449175,69892.40945,255.804121
1.028061239,362.5662318,4095.597751,3054.224656,719.7791874,10.76937064,69833.48875,255.7088382
1.044727906,362.5828985,4095.597751,3054.374086,719.5998384,10.94424953,69857.30601,255.804121
1.06167235,362.5998429,4095.597751,3054.483669,719.9589805,11.11912843,69855.74178,255.8449564
1.078339017,362.6165096,4095.597751,3054.653023,719.4505487,11.29086578,69893.89327,255.7632856
1.095005683,362.6331762,4095.597751,3054.862226,718.9421603,11.46574468,69889.60117,255.8449564
1.11167235,362.6498429,4095.597751,3055.03158,719.4310146,11.64062357,69864.3997,255.8449564
1.128339017,362.6665096,4095.597751,3055.1312,720.1591416,11.81550246,69885.23412,255.7632856
1.145005683,362.6831762,4095.597751,3055.400175,719.8403025,11.99038136,69901.54924,255.7632856
1.161394572,362.6995651,4095.597751,3055.56953,719.4016808,12.16421307,69913.78112,255.8857916
1.178339017,362.7165096,4095.597751,3055.838505,719.5715118,12.34013914,69855.03049,255.7088382
1.195005683,362.7331762,4095.597751,3055.977973,719.1627762,12.51397086,69895.03097,255.7632856
1.21167235,362.7498429,4095.597751,3056.187176,719.5519452,12.68884975,69854.15849,255.804121
1.228339017,362.7665096,4095.597751,3056.336606,719.2130304,12.86372864,69902.98085,255.7632856
1.244727906,362.7828985,4095.597751,3056.535847,719.4326499,13.03860753,69882.90409,255.7632856
1.26167235,362.7998429,4095.597751,3056.685277,719.6222967,13.21348643,69885.60783,255.9674618
1.278061239,362.8162318,4095.597751,3056.984138,719.1239786,13.38836532,69896.87829,255.9266268
1.294727906,362.8328985,4095.597751,3057.023986,719.9617421,13.56324421,69889.37523,255.7088382
1.31167235,362.8498429,4095.597751,3057.213265,719.0145262,13.73498157,69883.27468,255.8449564
1.328339017,362.8665096,4095.597751,3057.352733,719.6828594,13.90986046,69871.06597,255.7632856
1.345005684,362.8831762,4095.597751,3057.601784,719.9025331,14.08473936,69887.89216,255.7632856
1.36167235,362.8998429,4095.597751,3057.721328,719.1546986,14.25961825,69877.02931,255.7632856
1.378061239,362.9162318,4095.597751,3057.910607,719.3044972,14.43449714,69898.73776,255.6680025
1.395005684,362.9331762,4095.597751,3058.040113,719.3644752,14.60937603,69876.5603,255.6271667
1.41167235,362.9498429,4095.597751,3058.209468,719.9730038,14.78320775,69877.31444,255.804121
1.428061239,362.9662318,4095.597751,3058.358898,719.0556631,14.95808664,69871.85519,255.6680025
1.445005684,362.9831762,4095.597751,3058.468481,719.9034753,15.13296553,69854.68884,255.8857916
1.46167235,362.9998429,4095.597751,3058.617911,719.3285362,15.30784443,69916.38595,255.6680025
1.478339017,363.0165096,4095.597751,3058.777303,718.3779635,15.48272332,69910.91146,255.7088382
1.494727906,363.0328985,4095.597751,3058.90681,718.826883,15.65760221,69916.51884,255.8449564
1.51167235,363.0498429,4095.597751,3059.036316,719.7844183,15.83248111,69918.47759,255.7088382
1.528061239,363.0662318,4095.597751,3059.255481,719.0666107,16.00736,69926.05391,255.8857916
1.545005683,363.0831762,4095.597751,3059.454721,719.6751717,16.18119171,69908.35424,255.804121
1.561394572,363.0995651,4095.597751,3059.574266,719.8548132,16.35607061,69901.45304,255.7088382
1.578339017,363.1165096,4095.597751,3059.723696,719.186794,16.5309495,69886.82599,255.6271667
1.595005683,363.1331762,4095.597751,3059.833279,719.7453933,16.70582839,69912.53979,255.804121
1.611394572,363.1495651,4095.597751,3060.042481,719.3566792,16.87756575,69937.61478,255.8449564
1.628061239,363.1662318,4095.597751,3060.171988,719.0576342,17.05244464,69903.8581,255.6271667
1.644727906,363.1828985,4095.597751,3060.311456,719.7259674,17.22732353,69932.00406,255.8449564
1.66167235,363.1998429,4095.597751,3060.460887,720.0652071,17.40220243,69918.30063,255.7088382
1.678339017,363.2165096,4095.597751,3060.530621,719.4270199,17.57708132,69924.32909,255.8449564
1.695005683,363.2331762,4095.597751,3060.719899,719.1280398,17.75091303,69915.32733,255.804121
1.71167235,363.2498429,4095.597751,3060.849406,719.387475,17.92579193,69912.9456,255.804121
1.728339017,363.2665096,4095.597751,3060.998836,719.3577188,18.10067082,69911.02483,255.6271667
1.745005683,363.2831762,4095.597751,3061.108418,718.929005,18.27554971,69911.03999,255.7088382
1.76167235,363.2998429,4095.597751,3061.307659,719.687159,18.45042861,69959.61439,255.804121
1.778061239,363.3162318,4095.597751,3061.417241,718.6999649,18.6253075,69925.48189,255.8449564
1.795005683,363.3331762,4095.597751,3061.566672,720.0564364,18.79913921,69926.56551,255.8449564
1.811394572,363.3495651,4095.597751,3061.716102,718.6404527,18.97401811,69940.74378,255.8449564
1.828339017,363.3665096,4095.597751,3061.845609,719.4085037,19.148897,69905.72091,255.6680025
1.845005683,363.3831762,4095.597751,3061.995039,719.5881776,19.32377589,69905.47165,255.7632856
1.86167235,363.3998429,4095.597751,3062.224166,720.1668526,19.49865479,69908.67041,255.7632856
1.878339017,363.4165096,4095.597751,3062.313824,719.4189856,19.67353368,69898.78879,255.7632856
1.894727906,363.4328985,4095.597751,3062.493141,719.6086648,19.84841257,69925.01389,255.9266268
1.91167235,363.4498429,4095.597751,3062.592761,719.6526537,20.02014993,69903.29599,255.8449564
1.928061239,363.4662318,4095.597751,3062.772077,719.4653589,20.19502882,69933.17714,255.804121
1.944727906,363.4828985,4095.597751,3062.88166,720.3171603,20.36990771,69915.25275,255.6271667
1.96167235,363.4998429,4095.597751,3063.090862,718.7117572,20.54478661,69930.96659,255.7088382
1.978339017,363.5165096,4095.597751,3063.230331,719.1207961,20.7196655,69960.55725,255.8449564
1.995005683,363.5331762,4095.597751,3063.389723,718.8118107,20.89454439,69928.56323,255.7632856
2.011394572,363.5495651,4095.597751,3063.529192,719.1709853,21.06942329,69924.36804,255.7088382
2.028061239,363.5662318,4095.597751,3063.66866,720.3180158,21.24430218,69936.8427,255.7088382
2.044727906,363.5828985,4095.597751,3063.847977,719.9591878,21.41918107,69920.71816,255.804121
2.061394572,363.5995651,4095.597751,3064.027293,719.5371984,21.59405996,69912.40085,255.9674618
2.078339017,363.6165096,4095.597751,3064.126914,719.7101696,21.76789168,69902.28257,255.8857916
2.095005684,363.6331762,4095.597751,3064.296268,719.1618464,21.94381775,69948.09206,255.7632856
2.11167235,363.6498429,4095.597751,3064.445699,719.152036,22.11764946,69957.63981,255.8449564
2.128339017,363.6665096,4095.597751,3064.585167,719.2439379,22.28938682,69922.6095,255.6680025
2.144727906,363.6828985,4095.597751,3064.774445,719.321932,22.46426571,69928.97129,255.6680025
2.161394572,363.6995651,4095.597751,3064.874066,719.4437092,22.63914461,69917.84448,255.7088382
2.178339017,363.7165096,4095.597751,3065.053382,719.1028323,22.8140235,69945.01152,255.8449564
2.194727906,363.7328985,4095.597751,3065.143041,718.873554,22.98890239,69940.86591,255.7088382
2.21167235,363.7498429,4095.597751,3065.382129,720.3398243,23.16378129,69944.10782,255.7632856
2.228339017,363.7665096,4095.597751,3065.541522,718.7742586,23.33866018,69947.69097,255.9266268
2.245005684,363.7831762,4095.597751,3065.651104,720.2004967,23.51353907,69918.32971,255.7632856
2.26167235,363.7998429,4095.597751,3065.880231,719.1535955,23.68841796,69939.75573,255.6271667
2.278061239,363.8162318,4095.597751,3066.009737,718.9742248,23.86329686,69918.75922,255.6271667
2.295005683,363.8331762,4095.597751,3066.129282,719.6924007,24.03608139,69919.36282,255.7632856
2.311394572,363.8495651,4095.597751,3066.378332,719.5530514,24.20991311,69924.74623,255.6271667
2.328061239,363.8662318,4095.597751,3066.428142,719.4234584,24.384792,69933.8661,255.7632856
2.345005683,363.8831762,4095.597751,3066.547687,720.0119871,24.55967089,69939.65955,255.6271667
2.36167235,363.8998429,4095.597751,3066.717041,719.3340167,24.73454979,69931.10296,255.6271667
2.378339017,363.9165096,4095.597751,3066.85651,718.8654439,24.90942868,69942.10598,255.7088382
2.394727906,363.9328985,4095.597751,3067.015902,719.164803,25.08326039,69937.94373,255.6680025
2.41167235,363.9498429,4095.597751,3067.185257,719.38439,25.25813929,69924.70131,255.804121
2.428339017,363.9665096,4095.597751,3067.344649,719.6139391,25.43301818,69938.03324,255.7632856
2.445005683,363.9831762,4095.597751,3067.454232,719.8733525,25.60789707,69936.90665,255.9674618
2.461394572,363.9995651,4095.597751,3067.454232,719.8733525,25.78277596,69905.82798,255.6680025
2.478339017,364.0165096,4095.597751,3067.782979,720.2726243,25.95765486,69940.59114,255.8857916
2.495005683,364.0331762,4095.597751,3067.942371,719.4350774,26.13253375,69952.43477,255.7088382
2.51167235,364.0498429,4095.597751,3068.081839,719.3355004,26.30741264,69943.27916,255.7088382
2.528061239,364.0662318,4095.597751,3068.081839,719.3355004,26.48229154,69962.95377,255.8857916
2.544727906,364.0828985,4095.597751,3068.211346,719.6228595,26.65717043,69965.20297,255.7632856
2.561394572,364.0995651,4095.597751,3068.340852,719.8443978,26.83100214,69955.56087,255.804121
2.578061239,364.1162318,4095.597751,3068.470359,719.9941315,27.00588104,69940.79658,255.6271667
2.595005683,364.1331762,4095.597751,3068.659637,719.4757486,27.18075993,69974.70505,255.804121
2.61167235,364.1498429,4095.597751,3068.848916,720.4832132,27.35249729,69937.60934,255.8449564
2.628339017,364.1665096,4095.597751,3068.96846,720.283886,27.52947054,69967.70885,255.8449564
2.645005683,364.1831762,4095.597751,3069.147777,719.7954108,27.70225507,69962.89659,255.7632856
2.661394572,364.1995651,4095.597751,3069.277283,718.977777,27.87608679,69945.73285,255.7088382
2.678061239,364.2162318,4095.597751,3069.436676,720.3242864,28.05096568,69944.49919,255.7632856
2.695005683,364.2331762,4095.597751,3069.615992,719.8707162,28.22584457,69946.34068,255.804121
2.711394572,364.2495651,4095.597751,3069.775385,720.2049803,28.40072346,69949.56507,255.7632856
2.728339017,364.2665096,4095.597751,3069.875005,719.6466085,28.57560236,69972.08905,255.8449564
2.745005683,364.2831762,4095.597751,3070.054321,720.4047408,28.75048125,69936.76684,255.7088382
2.76167235,364.2998429,4095.597751,3070.253562,719.4475628,28.92536014,69968.44744,255.7632856
2.778061239,364.3162318,4095.597751,3070.363144,719.0088761,29.09919186,69944.86939,255.7088382
2.795005683,364.3331762,4095.597751,3070.552423,719.7271278,29.27511793,69930.69465,255.6680025
2.811394572,364.3495651,4095.597751,3070.671967,719.6092456,29.44894964,69948.33959,255.6271667
2.828339017,364.3665096,4095.597751,3070.88117,719.8371866,29.62382854,69939.55608,255.5863308
2.844727906,364.3828985,4095.597751,3071.08041,719.2988688,29.79870743,69933.54464,255.6680025
2.86167235,364.3998429,4095.597751,3071.170069,720.0668765,29.97358632,69961.13615,255.7632856
2.878339017,364.4165096,4095.597751,3071.449006,719.4887538,30.14846522,69946.08987,255.6680025
2.895005684,364.4331762,4095.597751,3071.558588,719.3093615,30.32334411,69938.98917,255.7088382
2.911394572,364.4495651,4095.597751,3071.678132,720.3267232,30.49508146,69978.58431,255.7632856
2.928339017,364.4665096,4095.597751,3071.817601,719.6387474,30.66996036,69955.32975,255.7088382
2.945005684,364.4831762,4095.597751,3071.976993,720.257238,30.84483925,69940.38699,255.6271667
2.96167235,364.4998429,4095.597751,3072.116462,719.4795066,31.01971814,69964.22252,255.804121
2.978061239,364.5162318,4095.597751,3072.30574,719.2802552,31.19459704,69970.86748,255.804121
2.995005684,364.5331762,4095.597751,3072.415323,719.868773,31.36947593,69975.37207,255.8449564
3.01167235,364.5498429,4095.597751,3072.564753,719.7991255,31.54435482,69951.98251,255.7088382
3.028061239,364.5662318,4095.597751,3072.773956,719.85919,31.71923372,69971.89297,255.804121
3.044727906,364.5828985,4095.597751,3072.803842,721.0260472,31.89306543,69955.7482,255.7088382
3.061394572,364.5995651,4095.597751,3073.003082,720.1586249,32.06794432,69960.64205,255.7088382
3.078339017,364.6165096,4095.597751,3073.212285,720.039178,32.24282322,69970.46477,255.7632856
3.094727906,364.6328985,4095.597751,3073.371677,720.2787,32.41770211,69957.12852,255.9266268
3.11167235,364.6498429,4095.597751,3073.501184,719.3912562,32.59048664,69976.7972,255.6680025
3.128339017,364.6665096,4095.597751,3073.660576,721.1865443,32.76745989,69929.54998,255.6680025
3.145005683,364.6831762,4095.597751,3073.819969,720.3988616,32.93919725,69936.40555,255.8449564
3.16167235,364.6998429,4095.597751,3074.009247,720.5187417,33.11407614,69970.29867,255.7632856
3.178061239,364.7162318,4095.597751,3074.138754,720.234656,33.28895504,69944.45627,255.7088382
3.194727906,364.7328985,4095.597751,3074.26826,719.6414116,33.46383393,69957.41479,255.804121
3.21167235,364.7498429,4095.597751,3074.417691,719.5917098,33.63766564,69970.45093,255.804121
3.228061239,364.7662318,4095.597751,3074.537235,720.1902113,33.81254454,69957.19626,255.6680025
3.245005683,364.7831762,4095.597751,3074.577083,720.1403904,33.98742343,69952.38917,255.804121
3.26167235,364.7998429,4095.597751,3074.826134,719.9295689,34.16230232,69950.30464,255.7632856
3.278339017,364.8165096,4095.597751,3074.985526,719.8915129,34.33718122,69970.07166,255.6271667
3.294727906,364.8328985,4095.597751,3075.134957,720.0013768,34.51206011,69953.37459,255.8449564
3.311394572,364.8495651,4095.597751,3075.294349,719.7721743,34.686939,69975.90751,255.6680025
3.328339017,364.8665096,4095.597751,3075.533438,719.5995713,34.86181789,70001.26134,255.804121
3.345005683,364.8831762,4095.597751,3075.652982,719.4733784,35.03564961,69958.11736,255.6680025
3.361394572,364.8995651,4095.597751,3075.842261,719.4436656,35.2105285,69979.12575,255.7632856
3.378339017,364.9165096,4095.597751,3075.921957,719.383915,35.38540739,69976.97086,255.5863308
3.395005683,364.9331762,4095.597751,3076.171008,720.0324217,35.56028629,69979.08738,255.804121
3.41167235,364.9498429,4095.597751,3076.270628,720.4114987,35.73307082,69982.38993,255.5046587
